,Lower Tail Angle,Mid-Tail Angle,Upper Tail Angle,SB Tail Angle,Active
0,-0.07680249761847824,0.3629042444326478,-0.18676548537170357,0.08285616689353148,0
1,-0.06474797345454242,0.3562191296447823,-0.18146063251299482,0.07926873860686534,0
2,-0.05286503125118536,0.3497668014656048,-0.1818341843468314,0.08546438956800806,0
3,-0.04122341680495101,0.34372238067830807,-0.1798445120068659,0.08719439675738538,0
4,-0.0291719446617269,0.33687678659215603,-0.1774941221605162,0.08189587961338596,0
5,-0.01675178973058422,0.32932825025382195,-0.17468882096297556,0.08153127221140588,0
6,-0.004340661862701101,0.3218039791132612,-0.17175579969180177,0.08114584858479512,0
7,0.008777467803987804,0.31294821613543666,-0.16777958924241076,0.08052922959283082,0
8,0.011705551174512774,0.3058091554598108,-0.16404539383660044,0.07971320571502982,0
9,0.0142485173511111,0.2996359132946691,-0.1604045920930841,0.07885963377064487,0
10,0.016782682966345774,0.2937125857935219,-0.15675211402138434,0.07814280531259099,0
11,0.01896653032999085,0.28869185664411035,-0.15343898320897909,0.07758389826092715,0
12,0.020488473926603135,0.2851640629689114,-0.15087468284326144,0.07726909235502921,0
13,0.02139255239054405,0.2830374354620959,-0.14906082575499724,0.07721152134654341,0
14,0.021724524290327007,0.2821986703892203,-0.14787971631729446,0.07732118743590188,0
15,0.022661503628216728,0.2803364512362312,-0.14634155798769788,0.07764146988347065,0
16,0.02320864960716218,0.27931532231320544,-0.14552093869666782,0.07827492798470859,0
17,0.02449272229177213,0.27694358936126484,-0.14423965520381898,0.07908370633353101,0
18,0.024767050378225353,0.2765553313852531,-0.14397636786812917,0.07995392723219252,0
19,0.02509849040122658,0.2760881466888443,-0.14368581251495804,0.0808046260835642,0
20,0.025130330500289677,0.27621046928213255,-0.1435761356515055,0.0814972797040463,0
21,0.024597386726489923,0.2774139063257475,-0.14391164815195223,0.08204690522964819,0
22,0.023480685702211623,0.27972639155152557,-0.14477389143186814,0.0825019250371577,0
23,0.023145571621761896,0.28051668114053463,-0.14490365914000947,0.08286414411449572,0
24,0.02393176259210339,0.2791201422690741,-0.14398706644533954,0.08314937445109782,0
25,0.025152004113049298,0.276837002914617,-0.14268408770019025,0.0833350939473112,0
26,0.026132070155325593,0.27493411452410044,-0.1416253069467719,0.08335573321610878,0
27,0.027261334157347328,0.2726356796198828,-0.14047509127631974,0.08322025421267432,0
28,0.028162566320546034,0.27065347061209355,-0.13962370955320225,0.08295561420433728,0
29,0.029220677938958772,0.2682300757542304,-0.1386860463632673,0.08248471552120096,0
30,0.030425201836896232,0.2653688802612013,-0.1376488283706787,0.08176376247026029,0
31,0.0318406405623235,0.2619330734807166,-0.1364188140472864,0.08069874925864706,0
32,0.033824422439001633,0.2572229488851896,-0.13460705852944166,0.07915202558236922,0
33,0.03603775742283055,0.2519004522943753,-0.13255376772221306,0.07718891581400689,0
34,0.03914039098089983,0.24470737545079224,-0.1296743847894617,0.07490223754899938,0
35,0.04244190297043282,0.23699106720900343,-0.1266174513332805,0.07230905264764598,0
36,0.04739096045579139,0.23152239574104794,-0.12473712781255175,0.06945503206604897,0
37,0.05582829257126676,0.2301041657083691,-0.12491870902204116,0.06637504530941829,0
38,0.057300088899054025,0.229438117040341,-0.1231054728163512,0.06307167690337323,0
39,0.06897866275878828,0.2238582641359126,-0.12120864444487056,0.05962969585639177,0
40,0.09004242250246852,0.21763374555276904,-0.11895624458846576,0.05615766210353712,0
41,0.09260482378385326,0.21675846929376874,-0.11665595844544097,0.05262839705454159,0
42,0.09916851248078773,0.21749869400445965,-0.11432214907178162,0.04901236504504336,0
43,0.09931082435850147,0.2167575731973228,-0.11228716138295836,0.04530774222947809,0
44,0.1115855540752535,0.2077556765660642,-0.10920000495995685,0.04148591593461326,0
45,0.11140670314899515,0.2057928442475645,-0.1064258541640748,0.03757047608940045,0
46,0.10226093771626177,0.20768595951933655,-0.10217750150772664,0.033604222422492835,0
47,0.1053684988017416,0.20834406886233214,-0.09760151093498504,0.02957090105983662,0
48,0.10420883434942496,0.21221917505765298,-0.09295220163700524,0.025455418096683502,0
49,0.0970629142971835,0.21922500008729218,-0.09892899256559895,0.027763717853012793,0
50,0.08178754318387949,0.2158353898192047,-0.090866610505278,0.0235652689254775,0
51,0.10343997562299379,0.21311161390015165,-0.08880734542029556,0.020837049211444025,0
52,0.09601292308747844,0.21531790069437262,-0.0864111685491511,0.01828765381470454,0
53,0.07552994790417733,0.21939907375878231,-0.08440968946537986,0.01591965216810909,0
54,0.07618527785729201,0.21738940478924862,-0.08244045357866137,0.013762212869489865,0
55,0.07235910580871918,0.2109735576566849,-0.07941723369629994,0.011867517978529474,0
56,0.07497725353147544,0.21030127394851084,-0.07732060558434117,0.010288258746791179,0
57,0.27462439155838014,0.37298742068701385,-0.03109400389351169,-0.1786183562164676,1
58,0.7328151017865059,0.22725526061918133,-0.28422957264335036,-0.4231310857302524,1
59,-0.5472089206797017,0.0,-0.210404672681213,-0.16683509999119295,1
60,-0.24811346697563463,0.08025055884493826,-0.1398915679385584,-0.11651334519518608,1
61,0.003593804711368165,0.12618371043058163,-0.2513101856355364,-0.005876920155789556,1
62,-0.013443876179419334,0.23351257475783127,-0.2066506112080897,-0.030289417813489816,1
63,-0.007332504845761534,0.11545937304212162,-0.09887913375174007,-0.031689632600349515,1
64,0.07688863027339288,0.1244298039680598,-0.1046495867322057,-0.03258166876595325,1
65,-0.034609783258262805,0.20517819489793476,-0.09164120378267526,-0.03277945090602197,1
66,-0.029809843237719846,0.19759063625744044,-0.0870291308099218,-0.032666638508437984,1
67,-0.02214362018064886,0.18894848240862228,-0.08226670553407,-0.032272611114497085,1
68,-0.03388238684068945,0.19929697617028452,-0.08602910223375648,-0.0320501472077388,1
69,0.10965296855993678,0.1459394224285928,-0.05818883940711084,-0.0316682549192322,1
70,0.11854271810824679,0.14737381569076602,-0.05820612529149427,-0.031011892432171617,1
71,0.11587133327499677,0.10200856313621287,0.03293651701143974,-0.07521961028040947,1
72,0.10884945347417085,0.14686347305365066,-0.05325353426449997,-0.031055094176779985,0
73,0.10349283017791233,0.14849175618255916,-0.05389796339359387,-0.02948791095438663,0
74,0.10065998987930103,0.1465103867601365,-0.051887301844001144,-0.028050889434014792,0
75,0.09716555075341349,0.10879042344242595,0.023507166732453566,-0.0639252586365342,0
76,0.09817131179811467,0.09830011856015863,0.04178140482244963,-0.07126231484327761,0
77,0.09907628951459557,0.1108339686569586,0.015518017967166564,-0.05695068894034172,0
78,0.10707578080625346,0.14316347527678852,-0.05127661292848895,-0.021919289467177805,0
79,0.1171240704993819,0.14065531891545113,-0.05014411734925783,-0.019966043462906313,0
80,0.1170962216849385,0.10676339642785271,0.016278699536360186,-0.05113504152370352,0
81,0.11813230500262684,0.10122920011844583,0.023782117114509393,-0.05259764270812628,0
82,0.12502057918856035,0.13679314969863654,-0.04881729297767867,-0.014202968900526525,0
83,0.12546980441712208,0.1359052230951372,-0.04904774696886971,-0.012155699754354377,0
84,0.13267053056619327,0.1363270131846659,-0.05045860897535093,-0.01012620142930043,0
85,0.13921186795055185,0.13621160214922146,-0.05080897058214395,-0.008095999400004494,0
86,0.13877536297604864,0.13609018759291125,-0.05101976495798466,-0.006063487598422235,0
87,0.144831919415358,0.1388426562532601,-0.05377057162522103,-0.004006159777369955,0
88,0.15046800498385426,0.1420355464171732,-0.05667692104733435,-0.001876413749787087,0
89,0.15670879571281704,0.1074836573542024,0.013927813872537609,-0.0358887811304629,0
90,0.16310896767969973,0.14375794840235745,-0.059621800498177,0.0030091454095386716,0
91,0.16278808521744015,0.143309414593626,-0.05976433607201104,0.0051061178202989055,0
92,0.16100675097665773,0.11046495231215037,0.005253075302475985,-0.02615076860735943,0
93,0.16875967481351095,0.10939168787747544,0.003703642780876315,-0.023515184817850532,0
94,0.17633806201158508,0.09903335422214665,0.02080609202751127,-0.03011640913788316,0
95,0.16986091602630982,0.14128931132903144,-0.06107959214706371,0.013443030253248,0
96,0.17404278413886454,0.1381718240832277,-0.05952111827533679,0.014806923422983953,0
97,0.17750844506133445,0.10310830886469269,0.007928828339724525,-0.017581488103445064,0
98,0.1771411371127556,0.09968523329205503,0.015492477369132729,-0.02083443662464779,0
99,0.1835395380915159,0.09613819982644678,0.023160516790742047,-0.0242336713883331,0
100,0.18463301155633483,0.09819665298096503,0.015494280816307882,-0.019344918590691762,0
101,0.18583447572371403,0.13274307961699972,-0.06062127400553052,0.021340435296362426,0
102,0.18688147995303694,0.12954561111821272,-0.05865956179265508,0.02179049509207731,0
103,0.18785776378315466,0.1266223981798631,-0.05685429981665768,0.02214883276526658,0
104,0.18873939245897242,0.12452703911358087,-0.05574550216066765,0.022447986246294516,0
105,0.18933377765136017,0.12324320458340265,-0.05513943522452358,0.0226867932654784,0
106,0.19081774495353754,0.12375634284077064,-0.05529835983232312,0.022873828455054035,0
107,0.19030241284772975,0.0917050895561804,0.013120469623722375,-0.01287583276837223,0
108,0.19783869051335534,0.08255187173854583,0.02230681545959312,-0.01702940648662521,0
109,0.1959270915272917,0.08237007562522125,0.022586678105894986,-0.01702421224711914,0
110,0.19458380638187656,0.12148780310770046,-0.05905400331667776,0.025163630718726182,0
111,0.19687651309825283,0.08194837248315157,0.017143616122643923,-0.01287254575664365,0
112,0.18902241253309837,0.11954231405789306,-0.05591033796351441,0.026061919303510095,0
113,0.17996241544062963,0.12355813921200554,-0.05529921231287904,0.026067950836124787,0
114,0.17194564030161397,0.09154377139129855,0.02003904895890063,-0.012851252407644065,0
115,0.16393394305244868,0.13248451611413703,-0.05789311010494069,0.028241121212323694,0
116,0.1554349241513111,0.1363487379559043,-0.05762546482904707,0.02841482749057178,0
117,0.14582438540391962,0.14091827758878095,-0.05734946110237482,0.028440426267388297,0
118,0.1368792849903322,0.14532355272085917,-0.05708572962457348,0.028439804775081345,0
119,0.12562526214613312,0.1504027021868084,-0.05715087632495841,0.02841633267220134,0
120,0.11580192110820686,0.1540350433232689,-0.05624859971551999,0.028345188715186875,0
121,0.10536505917387418,0.15831894159893656,-0.055665715153699225,0.02824309319108087,0
122,0.10181604655098342,0.15760439556059236,-0.055102663678307184,0.028316789674841747,0
123,0.09120457323335973,0.1628827086348288,-0.055529212763358426,0.02838158468942087,0
124,0.08715860804829445,0.1231881893049609,0.025971630749376473,-0.013437323841511528,0
125,0.08576647166230966,0.161542903643904,-0.056050489165034634,0.02982391052957345,0
126,0.08344729879178603,0.16117886223194455,-0.05516253791747827,0.029675171104624365,0
127,0.08010730692689538,0.1633416532449532,-0.05557333716116375,0.02953720955800998,0
128,0.0768934642312824,0.1655910359385362,-0.05599792553384075,0.029430739378909276,0
129,0.07448939777119312,0.16509597074821558,-0.05514984821720148,0.029348567315505836,0
130,0.08202466582587142,0.15855455803728757,-0.05364924471881016,0.02928390631439548,0
131,0.0786040916594537,0.15931397121300606,-0.05315842796465198,0.02923278304412502,0
132,0.07612072034792172,0.16053275346230267,-0.05294070892523539,0.02915832694973286,0
133,0.07410110110451917,0.16246477152643246,-0.05297258251258263,0.02905515919323287,0
134,0.07258439486644575,0.16272778524144504,-0.052309097001376426,0.028928895288909295,0
135,0.06217728113810583,0.16942649312428237,-0.05258763120296539,0.028778291559602653,0
136,0.05834031557353159,0.17165902025860635,-0.05249406927794631,0.028602715333930107,0
137,0.047931883457104085,0.18056544715339662,-0.0539935561306959,0.028403507312037224,0
138,0.046606320660472544,0.18156826163123752,-0.05349769106570834,0.02817914800951371,0
139,0.044816638200772196,0.18291579531070168,-0.05296992976341963,0.02793325692797044,0
140,0.042883456491455973,0.18283179099330882,-0.05176124516917069,0.02767106737188829,0
141,0.041063475208231726,0.18271935378570703,-0.050525888636700156,0.027388068774487184,0
142,0.038602542530797646,0.1857643006061669,-0.05087182293094994,0.027081957844588,0
143,0.026987053071656053,0.194113279342635,-0.05155042898947482,0.026747048517074656,0
144,0.02555426919581638,0.19525304149316103,-0.050873781039897814,0.02637430734717361,0
145,0.022320720415120565,0.19707646470960105,-0.050510650028631865,0.025969105872747367,0
146,0.021331786644525952,0.19694356386101486,-0.04946095229309888,0.02553822917663151,0
147,0.01855959376201044,0.19963490468796374,-0.0493852166651223,0.025083660304539457,0
148,0.0173324484310573,0.20061784282728556,-0.04863639385982532,0.02460989686024817,0
149,0.015871297530297035,0.20084823825319642,-0.04754533250689663,0.02412021251923635,0
150,0.015409021765480091,0.20032799097397636,-0.04611369476801519,0.02361566341226906,0
151,0.013823744952783379,0.2014612238494382,-0.04533263513071839,0.02310301101197343,0
152,0.013172491343691473,0.20156148749921243,-0.04422202858416702,0.022590625335321857,0
153,0.012195942008802252,0.2023258303609654,-0.043442675527318286,0.022078983786013584,0
154,0.011263477735362848,0.20305116423097402,-0.04266793371830113,0.021568990065211846,0
155,0.010981180003187152,0.20207668752489427,-0.040941877349491396,0.021062745409157646,0
156,0.010570925429067124,0.20169720069042008,-0.03952610184496619,0.02056039547800248,0
157,0.00845598139280579,0.20301913515636594,-0.03912562509068129,0.020064161706036643,0
158,0.00964751163732025,0.20081064514930924,-0.037085654392706946,0.0195771134471161,0
159,0.008473048702130281,0.2010724269137132,-0.03605461201085802,0.019099723527782775,0
160,0.008412127943395298,0.20085480237104214,-0.03502728417996348,0.018631632340741167,0
161,0.007679032619796189,0.20129201339707192,-0.034349039659501646,0.018174571831433006,0
162,0.0065908484828689495,0.20166614632460034,-0.033680056017999505,0.01772962266993039,0
163,0.004544612221490052,0.20273778452847058,-0.03338379902378552,0.017297413504185677,0
164,0.004195261241429549,0.20237896165043878,-0.03244386031017532,0.016878918722457392,0
165,0.0018855823488403978,0.20404575078082976,-0.032513468026533765,0.016474209940323004,0
166,0.0012080267181788784,0.20428552297750224,-0.03193813754592334,0.01608238159670572,0
167,0.0005477671830260711,0.20449097710558206,-0.03138272196222802,0.015702520046409596,0
168,-0.00044110103611139095,0.20533709318642224,-0.031170953974840376,0.015334268305538856,0
169,-0.0003425183845977564,0.20411270556560712,-0.029999412643691326,0.014976518816070428,0
170,0.0007307887302601124,0.2028392973171429,-0.02883542033677866,0.014628533739250216,0
171,0.0001853171278662913,0.20292799914813342,-0.028356511215935853,0.014289959633154492,0
172,-0.0003338433246220518,0.20301355024539713,-0.027905075708933857,0.013960239671868102,0
173,-0.0008020024964121575,0.2030549781233284,-0.02746047618117231,0.013639138186061217,0
174,-0.0008803309648834912,0.20248475322143733,-0.026879224709200233,0.0134141024568728,0
175,0.0006592486129246566,0.2005241164322622,-0.025646695158779043,0.013192620385226839,0
176,0.002367094170269368,0.1984986751860074,-0.02440044870973468,0.012975249403631928,0
177,0.00025331048236143516,0.20059295603380445,-0.02516013861776134,0.01276281323627515,0
178,0.0016075225243192826,0.1992462279657632,-0.024276127784230717,0.012555598286422498,0
179,0.0013893386316281564,0.1992504476676844,-0.024060105779218688,0.012354137251782582,0
180,0.001556400498717636,0.19804821188499444,-0.02245747001640952,0.011609431961062011,0
181,0.002117218228853801,0.19660797978059152,-0.021484559548360593,0.011362166982227695,0
182,0.002007172155845005,0.19652546069328913,-0.021183324827809713,0.01112315713766332,0
183,0.0019263670661904264,0.19643853149509205,-0.02089458882109385,0.010893583962013675,0
184,0.0015132649035161094,0.19704646264621273,-0.020960064542399515,0.010677161257727885,0
185,0.0018472011013739298,0.19624488363212622,-0.020352195062629974,0.010469199710410493,0
186,0.002177460117678276,0.195474986234367,-0.019757237955352558,0.010262421952982326,0
187,0.0022001156275979206,0.1953239465959684,-0.019458580384591695,0.010056681331197748,0
188,0.0022158236628921912,0.19520573988013057,-0.019171443533648524,0.009851743896692078,0
189,0.0026006076964639746,0.19438085336471822,-0.018528777090113913,0.009642868677705696,0
190,0.004444552396003054,0.1922010889431749,-0.01721127212769158,0.009428732211289592,0
191,0.0048506649808057745,0.19134252234441274,-0.016509175170410728,0.009202926196325567,0
192,0.006182505407453132,0.190480416160427,-0.016088271288069667,0.00895603071391804,0
193,0.005907538366840992,0.19092673163747298,-0.015950441677924143,0.008693784380319425,0
194,0.005276476473306868,0.19206677263288086,-0.016132161890221042,0.008423372211949776,0
195,0.004658436467360083,0.1931865747546917,-0.016291759037095677,0.00814711929738099,0
196,0.00475722104838372,0.1929287821630128,-0.015777827988600723,0.007870012755576639,0
197,0.004520243042955396,0.19333583709756885,-0.015581962029150631,0.007594224183885778,0
198,0.004283286283339738,0.19375696812956544,-0.015389197553601797,0.007319700240922877,0
199,0.004783123762475139,0.19277504266179468,-0.014521839811457937,0.007053148432905942,0
200,0.004911854911879399,0.1925470918074459,-0.0140325836904589,0.006802141866764533,0
201,0.004710237593816391,0.19299470174328004,-0.013876055742930049,0.0065658214195201126,0
202,0.004508641379545875,0.19348079773260896,-0.013734461192949965,0.006344423108798569,0
203,0.004315002507060406,0.19399027226887444,-0.01359408233133097,0.0061368485986399435,0
204,0.004105184704646714,0.19456597317807622,-0.013467309164097774,0.0059393691336793175,0
205,0.0033620698578054053,0.19446923095035507,-0.012694124279735153,0.005756684282935964,0
206,0.0034895655881048704,0.1944877253995716,-0.012277241341270617,0.005593641022846985,0
207,0.004329758176461418,0.19317231729406892,-0.01120522652365441,0.005451524969880328,0
208,0.004804077252171357,0.19261881992147778,-0.010496234862162446,0.005333958891296842,0
209,0.0049245731808884585,0.192800510491415,-0.010140422804561844,0.005240448596735003,0
210,0.005737376804095362,0.19168062175734457,-0.009150781923037865,0.005166426892392995,0
211,0.005833917600100769,0.1919928734444296,-0.00886327526729902,0.005117151352291849,0
212,0.0055728931848730845,0.19304561224458539,-0.008960255268562811,0.0050994746500245824,0
213,0.00291615833150205,0.1948035246409745,-0.00942175522055333,0.005107842794374928,0
214,0.003016033804531304,0.19523586463108744,-0.009270549484135415,0.005141119239475689,0
215,0.00277136839873382,0.19636103274175332,-0.009486586068973235,0.005192732225115737,0
216,0.0029007522420299026,0.19677328460556964,-0.00938637050971014,0.005249955316394939,0
217,0.0023436142571600094,0.19853152534159424,-0.009991573717683444,0.005324298287842311,0
218,0.0025316487053301806,0.19888491536582942,-0.010012123700107178,0.0054309236139036265,0
219,0.003114849986771695,0.1985116083069558,-0.009788560397656187,0.005572532972813793,0
220,0.0033731636065987836,0.19880687549218745,-0.010005916949221483,0.005755274912912167,0
221,0.004056129468760439,0.19832970543747708,-0.009987412396441187,0.005984856335359723,0
222,0.004423614782329999,0.1985032086068177,-0.010424682964000453,0.006259171462711155,0
223,0.004142107384579319,0.19998570292022722,-0.01165743147985765,0.006592599081407524,0
224,0.004614661157999134,0.2000926420893112,-0.012420667745879577,0.007002552399954176,0
225,0.005492278823737706,0.19948911603073283,-0.013012563405270239,0.007478721982732139,0
226,0.009152749602075794,0.19752599260857107,-0.013096611369803224,0.00801598283847671,0
